453.0,120459.0,66596.0,0.047719478607177734
454.0,120456.0,66627.0,0.047734975814819336
454.0,120430.0,66601.0,0.04775071144104004
453.0,120451.0,66612.0,0.04776620864868164
452.0,120475.0,66591.0,0.047781944274902344
452.0,120326.0,66573.0,0.047797441482543945
453.0,120410.0,66603.0,0.08956122398376465
453.0,120381.0,66577.0,0.1152658462524414
453.0,120425.0,66599.0,0.13176345825195312
452.0,120395.0,66601.0,0.14267516136169434
453.0,120386.0,66556.0,0.15004444122314453
453.0,120389.0,66587.0,0.15508723258972168
452.0,120331.0,66561.0,0.18738794326782227
452.0,120394.0,66586.0,0.21191143989562988
453.0,120400.0,66604.0,0.23076748847961426
451.0,120403.0,66581.0,0.24541544914245605
453.0,120428.0,66585.0,0.25688862800598145
453.0,120516.0,66544.0,0.2659330368041992
452.0,120488.0,66552.0,0.29061293601989746
453.0,120525.0,66567.0,0.3109109401702881
452.0,120505.0,66553.0,0.3277018070220947
453.0,120533.0,66580.0,0.3416600227355957
453.0,120518.0,66591.0,0.35331106185913086
453.0,120583.0,66571.0,0.3630695343017578
452.0,120583.0,66555.0,0.3851306438446045
453.0,120553.0,66552.0,0.4040992259979248
453.0,120561.0,66578.0,0.42046356201171875
453.0,120541.0,66574.0,0.43462181091308594
454.0,120513.0,66592.0,0.4469027519226074
453.0,120527.0,66578.0,0.4575784206390381
454.0,120541.0,66546.0,0.47818827629089355
453.0,120519.0,66570.0,0.4964120388031006
452.0,120589.0,66571.0,0.5125603675842285
454.0,120523.0,66593.0,0.526897668838501
454.0,120494.0,66588.0,0.5396485328674316
453.0,120527.0,66583.0,0.5510058403015137
453.0,120521.0,66572.0,0.5718324184417725
454.0,120469.0,66577.0,0.5906152725219727
453.0,120410.0,66587.0,0.6075809001922607
452.0,120413.0,66606.0,0.6229264736175537
455.0,120417.0,66620.0,0.6368246078491211
453.0,120333.0,66573.0,0.6494264602661133
453.0,120317.0,66578.0,0.6688623428344727
453.0,120418.0,66584.0,0.6866302490234375
453.0,120350.0,66570.0,0.7028908729553223
453.0,120361.0,66582.0,0.7177877426147461
452.0,120384.0,66600.0,0.7314479351043701
455.0,120325.0,66567.0,0.7439851760864258
453.0,120366.0,66555.0,0.762629508972168
453.0,120347.0,66577.0,0.7798540592193604
452.0,120354.0,66613.0,0.7957799434661865
453.0,120318.0,66574.0,0.8105170726776123
453.0,120365.0,66538.0,0.8241641521453857
452.0,120309.0,66577.0,0.8368103504180908
453.0,120345.0,66579.0,0.8548388481140137
454.0,120299.0,66566.0,0.8716335296630859
452.0,120315.0,66580.0,0.8872888088226318
452.0,120295.0,66602.0,0.9018917083740234
453.0,120337.0,66584.0,0.915520429611206
452.0,120263.0,66560.0,0.9282472133636475
452.0,120312.0,66569.0,0.9468622207641602
452.0,120253.0,66599.0,0.964327335357666
453.0,120352.0,66595.0,0.9807226657867432
453.0,120310.0,66561.0,0.9961221218109131
453.0,120351.0,66593.0,1.0105929374694824
452.0,120317.0,66582.0,1.0241973400115967
454.0,120289.0,66569.0,1.0423109531402588
452.0,120369.0,66566.0,1.059398889541626
452.0,120283.0,66593.0,1.075526475906372
452.0,120316.0,66589.0,1.0907542705535889
451.0,120379.0,66600.0,1.1051385402679443
452.0,120365.0,66583.0,1.1187312602996826
452.0,120337.0,66582.0,1.1364169120788574
452.0,120319.0,66594.0,1.1531784534454346
452.0,120357.0,66608.0,1.169069528579712
452.0,120366.0,66618.0,1.1841413974761963
453.0,120415.0,66611.0,1.1984407901763916
453.0,120367.0,66601.0,1.2120120525360107
453.0,120475.0,66610.0,1.2292733192443848
452.0,120366.0,66625.0,1.245696783065796
454.0,120424.0,66617.0,1.2613275051116943
453.0,120435.0,66616.0,1.2762086391448975
453.0,120474.0,66632.0,1.2903804779052734
453.0,120454.0,66610.0,1.303880214691162
453.0,120491.0,66624.0,1.3216524124145508
453.0,120384.0,66640.0,1.338623285293579
454.0,120475.0,66658.0,1.3548336029052734
454.0,120418.0,66619.0,1.3703217506408691
454.0,120513.0,66645.0,1.3851237297058105
454.0,120465.0,66674.0,1.39927339553833
455.0,120509.0,66648.0,1.4167003631591797
455.0,120489.0,66670.0,1.4333903789520264
453.0,120469.0,66674.0,1.449378252029419
453.0,120506.0,66676.0,1.4646973609924316
454.0,120491.0,66681.0,1.4793789386749268
453.0,120496.0,66683.0,1.4934523105621338
454.0,120483.0,66669.0,1.5106067657470703
454.0,120500.0,66667.0,1.5270781517028809
453.0,120447.0,66674.0,1.5428969860076904
454.0,120463.0,66671.0,1.5580921173095703
453.0,120416.0,66666.0,1.5726909637451172
453.0,120418.0,66688.0,1.5867199897766113
453.0,120399.0,66655.0,1.6036937236785889
452.0,120399.0,66673.0,1.6200287342071533
453.0,120390.0,66686.0,1.6357526779174805
453.0,120392.0,66676.0,1.650890827178955
454.0,120411.0,66687.0,1.6654675006866455
454.0,120432.0,66678.0,1.6795060634613037
453.0,120372.0,66651.0,1.6968016624450684
453.0,120422.0,66665.0,1.7134830951690674
454.0,120410.0,66664.0,1.7295746803283691
454.0,120396.0,66685.0,1.7451000213623047
453.0,120451.0,66671.0,1.7600815296173096
454.0,120437.0,66706.0,1.7745401859283447
453.0,120476.0,66666.0,1.7915937900543213
453.0,120453.0,66667.0,1.8080713748931885
452.0,120450.0,66685.0,1.8239953517913818
453.0,120391.0,66701.0,1.839385986328125
454.0,120429.0,66694.0,1.8542635440826416
453.0,120434.0,66670.0,1.8686473369598389
454.0,120507.0,66700.0,1.8855013847351074
452.0,120472.0,66676.0,1.90181303024292
454.0,120402.0,66711.0,1.9176020622253418
454.0,120444.0,66730.0,1.932887077331543
453.0,120450.0,66712.0,1.9476864337921143
453.0,120501.0,66719.0,1.9620170593261719
454.0,120537.0,66717.0,1.9787044525146484
453.0,120513.0,66729.0,1.9948792457580566
454.0,120487.0,66731.0,2.01055908203125
453.0,120551.0,66734.0,2.0257606506347656
454.0,120522.0,66734.0,2.0405006408691406
453.0,120542.0,66696.0,2.0547945499420166
453.0,120461.0,66727.0,2.071819305419922
454.0,120588.0,66747.0,2.0883452892303467
455.0,120551.0,66716.0,2.10438871383667
453.0,120614.0,66732.0,2.1199657917022705
454.0,120590.0,66728.0,2.1350913047790527
455.0,120624.0,66727.0,2.1497802734375
453.0,120555.0,66737.0,2.1665878295898438
453.0,120679.0,66719.0,2.1829230785369873
453.0,120608.0,66755.0,2.198801040649414
453.0,120558.0,66728.0,2.214235544204712
453.0,120641.0,66780.0,2.229241132736206
452.0,120655.0,66757.0,2.243830442428589
453.0,120748.0,66773.0,2.260509729385376
453.0,120692.0,66761.0,2.276738405227661
453.0,120720.0,66780.0,2.2925307750701904
453.0,120693.0,66754.0,2.3078997135162354
453.0,120731.0,66777.0,2.3228580951690674
453.0,120676.0,66796.0,2.3374178409576416
454.0,120671.0,66776.0,2.353933334350586
454.0,120752.0,66799.0,2.3700199127197266
454.0,120755.0,66768.0,2.385690212249756
452.0,120785.0,66807.0,2.400956153869629
453.0,120742.0,66812.0,2.4158291816711426
454.0,120714.0,66798.0,2.430320978164673
452.0,120742.0,66791.0,2.4471020698547363
453.0,120667.0,66792.0,2.4634642601013184
452.0,120672.0,66782.0,2.479419708251953
453.0,120689.0,66800.0,2.4949793815612793
454.0,120668.0,66785.0,2.5101544857025146
452.0,120658.0,66800.0,2.5249557495117188
453.0,120680.0,66814.0,2.5415897369384766
453.0,120687.0,66812.0,2.557823419570923
452.0,120749.0,66805.0,2.573667287826538
453.0,120667.0,66784.0,2.589132070541382
453.0,120700.0,66786.0,2.6042277812957764
454.0,120603.0,66802.0,2.618964433670044
453.0,120674.0,66826.0,2.6354711055755615
452.0,120746.0,66788.0,2.6515939235687256
453.0,120705.0,66812.0,2.6673426628112793
453.0,120740.0,66814.0,2.682727336883545
454.0,120678.0,66814.0,2.6977570056915283
455.0,120722.0,66809.0,2.7124412059783936
454.0,120700.0,66823.0,2.72883677482605
454.0,120726.0,66821.0,2.744863510131836
453.0,120698.0,66838.0,2.760530710220337
453.0,120716.0,66815.0,2.7758474349975586
453.0,120718.0,66832.0,2.7908222675323486
452.0,120729.0,66816.0,2.805464267730713
453.0,120759.0,66846.0,2.8220925331115723
452.0,120774.0,66840.0,2.838359832763672
454.0,120777.0,66830.0,2.8542745113372803
453.0,120807.0,66831.0,2.869845390319824
453.0,120757.0,66823.0,2.885080575942993
452.0,120774.0,66809.0,2.8999884128570557
453.0,120785.0,66836.0,2.9164950847625732
453.0,120748.0,66837.0,2.9326539039611816
452.0,120758.0,66829.0,2.9484732151031494
452.0,120867.0,66821.0,2.963961362838745
453.0,120789.0,66820.0,2.979125499725342
452.0,120831.0,66850.0,2.993973731994629
453.0,120831.0,66840.0,3.0103728771209717
453.0,120830.0,66859.0,3.0264368057250977
453.0,120892.0,66864.0,3.042173147201538
454.0,120880.0,66872.0,3.0575897693634033
453.0,120901.0,66854.0,3.0726935863494873
453.0,120971.0,66877.0,3.087491750717163
454.0,120939.0,66841.0,3.1037955284118652
454.0,120931.0,66886.0,3.1197757720947266
453.0,120933.0,66850.0,3.13543963432312
452.0,120975.0,66880.0,3.150794267654419
453.0,120970.0,66887.0,3.165846347808838
452.0,120992.0,66901.0,3.180602550506592
454.0,120907.0,66900.0,3.1971139907836914
454.0,120993.0,66865.0,3.2133076190948486
453.0,120973.0,66905.0,3.2291903495788574
454.0,120945.0,66897.0,3.2447688579559326
453.0,120888.0,66896.0,3.260049819946289
453.0,120919.0,66900.0,3.2750394344329834
452.0,120857.0,66892.0,3.2914469242095947
452.0,120876.0,66851.0,3.307547092437744
452.0,120879.0,66916.0,3.3233468532562256
452.0,120821.0,66894.0,3.3388519287109375
452.0,120860.0,66889.0,3.3540687561035156
453.0,120838.0,66895.0,3.3690035343170166
453.0,120838.0,66909.0,3.3853917121887207
453.0,120797.0,66876.0,3.4014816284179688
453.0,120847.0,66910.0,3.417279005050659
452.0,120852.0,66907.0,3.4327900409698486
452.0,120841.0,66885.0,3.4480202198028564
454.0,120804.0,66888.0,3.46297550201416
452.0,120854.0,66889.0,3.4792022705078125
453.0,120831.0,66918.0,3.495140790939331
452.0,120870.0,66877.0,3.5107970237731934
455.0,120841.0,66867.0,3.5261764526367188
453.0,120841.0,66859.0,3.5412845611572266
452.0,120766.0,66874.0,3.556126594543457
453.0,120813.0,66900.0,3.5725409984588623
454.0,120808.0,66845.0,3.5886716842651367
453.0,120806.0,66888.0,3.6045243740081787
453.0,120818.0,66854.0,3.6201045513153076
453.0,120818.0,66893.0,3.6354172229766846
453.0,120819.0,66880.0,3.6504673957824707
453.0,120882.0,66886.0,3.6667919158935547
453.0,120817.0,66881.0,3.6828410625457764
453.0,120847.0,66856.0,3.698620319366455
453.0,120833.0,66844.0,3.714134931564331
454.0,120814.0,66872.0,3.7293896675109863
454.0,120768.0,66846.0,3.744389295578003
454.0,120791.0,66854.0,3.7606325149536133
453.0,120788.0,66849.0,3.7766082286834717
453.0,120761.0,66847.0,3.7923219203948975
453.0,120790.0,66841.0,3.8077781200408936
454.0,120735.0,66869.0,3.822981595993042
453.0,120816.0,66885.0,3.837937116622925
453.0,120831.0,66899.0,3.8541066646575928
454.0,120812.0,66862.0,3.87001633644104
453.0,120836.0,66869.0,3.8856711387634277
454.0,120823.0,66852.0,3.9010753631591797
454.0,120764.0,66869.0,3.916233539581299
452.0,120782.0,66842.0,3.931150197982788
454.0,120894.0,66846.0,3.9474904537200928
453.0,120867.0,66876.0,3.9635748863220215
453.0,120899.0,66871.0,3.979407548904419
453.0,120898.0,66884.0,3.994993209838867
454.0,120925.0,66872.0,4.01033616065979
453.0,120921.0,66858.0,4.025440216064453
453.0,120912.0,66849.0,4.041701078414917
453.0,120906.0,66852.0,4.05771279335022
455.0,120925.0,66845.0,4.073479652404785
454.0,120901.0,66868.0,4.089005708694458
451.0,120899.0,66849.0,4.104295253753662
453.0,120879.0,66862.0,4.119352102279663
454.0,120861.0,66861.0,4.135540723800659
453.0,120857.0,66863.0,4.151486396789551
453.0,120879.0,66868.0,4.167193651199341
454.0,120885.0,66847.0,4.182666063308716
453.0,120861.0,66889.0,4.1979079246521
454.0,120788.0,66845.0,4.212923049926758
453.0,120818.0,66834.0,4.229074954986572
454.0,120785.0,66801.0,4.244990110397339
453.0,120776.0,66823.0,4.260672092437744
453.0,120708.0,66818.0,4.276124954223633
453.0,120761.0,66824.0,4.291352272033691
453.0,120759.0,66811.0,4.3063576221466064
452.0,120763.0,66827.0,4.322635173797607
454.0,120687.0,66804.0,4.338679313659668
453.0,120747.0,66804.0,4.354493856430054
454.0,120689.0,66799.0,4.370082139968872
452.0,120701.0,66798.0,4.385448217391968
454.0,120658.0,66803.0,4.400595188140869
451.0,120664.0,66801.0,4.416815996170044
451.0,120667.0,66794.0,4.4328086376190186
453.0,120729.0,66770.0,4.448577165603638
452.0,120617.0,66776.0,4.46412467956543
453.0,120717.0,66773.0,4.479455232620239
455.0,120539.0,66768.0,4.4945714473724365
452.0,120649.0,66765.0,4.510725975036621
453.0,120651.0,66757.0,4.526657819747925
454.0,120609.0,66779.0,4.542370796203613
454.0,120579.0,66763.0,4.557868242263794
452.0,120626.0,66745.0,4.573153257369995
453.0,120576.0,66728.0,4.588229179382324
453.0,120639.0,66714.0,4.60430908203125
453.0,120559.0,66738.0,4.620172023773193
454.0,120569.0,66727.0,4.6358208656311035
453.0,120552.0,66735.0,4.651259422302246
453.0,120572.0,66713.0,4.666490316390991
454.0,120593.0,66711.0,4.681517124176025
454.0,120550.0,66718.0,4.697741985321045
453.0,120562.0,66709.0,4.713752508163452
452.0,120582.0,66748.0,4.729551792144775
454.0,120587.0,66700.0,4.745142698287964
454.0,120594.0,66708.0,4.760528326034546
455.0,120534.0,66703.0,4.775712013244629
454.0,120599.0,66707.0,4.79187273979187
454.0,120612.0,66696.0,4.807823896408081
453.0,120577.0,66692.0,4.823568344116211
454.0,120533.0,66726.0,4.839109182357788
454.0,120621.0,66723.0,4.854449272155762
453.0,120593.0,66693.0,4.869591474533081
453.0,120596.0,66688.0,4.885693073272705
454.0,120557.0,66701.0,4.901589393615723
453.0,120554.0,66694.0,4.917283773422241
454.0,120541.0,66698.0,4.932778596878052
452.0,120587.0,66669.0,4.948077201843262
453.0,120611.0,66668.0,4.963181972503662
453.0,120557.0,66684.0,4.979228734970093
453.0,120582.0,66693.0,4.99507474899292
453.0,120630.0,66696.0,5.010722875595093
454.0,120548.0,66696.0,5.0261759757995605
454.0,120581.0,66703.0,5.041436672210693
454.0,120630.0,66708.0,5.056507587432861
453.0,120649.0,66670.0,5.072689056396484
452.0,120608.0,66702.0,5.088672161102295
452.0,120623.0,66706.0,5.104459285736084
454.0,120631.0,66700.0,5.12005352973938
452.0,120634.0,66678.0,5.135457277297974
453.0,120616.0,66680.0,5.150673151016235
453.0,120616.0,66673.0,5.166808128356934
454.0,120542.0,66687.0,5.182748794555664
453.0,120502.0,66687.0,5.198497533798218
454.0,120487.0,66669.0,5.214056968688965
453.0,120406.0,66660.0,5.229429721832275
454.0,120395.0,66623.0,5.24461817741394
453.0,120497.0,66627.0,5.2608771324157715
453.0,120388.0,66608.0,5.276943683624268
453.0,120415.0,66654.0,5.292820453643799
453.0,120397.0,66597.0,5.308510065078735
453.0,120372.0,66618.0,5.324014663696289
453.0,120358.0,66612.0,5.33933687210083
453.0,120373.0,66603.0,5.355357885360718
453.0,120388.0,66646.0,5.371192216873169
454.0,120358.0,66659.0,5.386842250823975
454.0,120404.0,66605.0,5.402310609817505
454.0,120324.0,66606.0,5.417599439620972
454.0,120303.0,66623.0,5.432711124420166
453.0,120365.0,66604.0,5.44892692565918
453.0,120364.0,66607.0,5.4649574756622314
453.0,120292.0,66584.0,5.480804681777954
454.0,120338.0,66582.0,5.496471881866455
454.0,120322.0,66578.0,5.511960506439209
454.0,120316.0,66595.0,5.527272939682007
453.0,120341.0,66557.0,5.543351650238037
453.0,120261.0,66589.0,5.559249401092529
454.0,120313.0,66578.0,5.574968338012695
452.0,120269.0,66582.0,5.590510845184326
454.0,120241.0,66578.0,5.605879068374634
454.0,120289.0,66575.0,5.62107515335083
454.0,120292.0,66570.0,5.637126445770264
453.0,120242.0,66573.0,5.653000116348267
452.0,120280.0,66559.0,5.668698072433472
452.0,120311.0,66600.0,5.68422269821167
453.0,120247.0,66588.0,5.699576139450073
452.0,120274.0,66604.0,5.7147603034973145
453.0,120301.0,66573.0,5.73074197769165
453.0,120257.0,66581.0,5.746549606323242
453.0,120272.0,66580.0,5.7621848583221436
454.0,120278.0,66593.0,5.777650356292725
452.0,120320.0,66577.0,5.792947769165039
452.0,120317.0,66566.0,5.808079242706299
453.0,120345.0,66570.0,5.824190378189087
453.0,120370.0,66590.0,5.840129137039185
453.0,120362.0,66570.0,5.8558971881866455
454.0,120370.0,66595.0,5.8714964389801025
453.0,120375.0,66574.0,5.886929273605347
454.0,120335.0,66603.0,5.902197360992432
454.0,120345.0,66575.0,5.918248176574707
452.0,120364.0,66619.0,5.934129476547241
454.0,120409.0,66595.0,5.949843406677246
453.0,120371.0,66612.0,5.965391635894775
454.0,120441.0,66584.0,5.98077654838562
454.0,120357.0,66619.0,5.995999574661255
454.0,120339.0,66611.0,6.012004375457764
453.0,120426.0,66620.0,6.0278425216674805
454.0,120330.0,66606.0,6.043516159057617
453.0,120424.0,66633.0,6.059027194976807
454.0,120430.0,66613.0,6.0743772983551025
454.0,120359.0,66599.0,6.089568853378296
453.0,120374.0,66600.0,6.1055920124053955
452.0,120336.0,66603.0,6.121451139450073
454.0,120290.0,66575.0,6.137147903442383
454.0,120307.0,66586.0,6.152684450149536
453.0,120231.0,66583.0,6.168062448501587
453.0,120252.0,66586.0,6.183283567428589
455.0,120260.0,66612.0,6.199354410171509
454.0,120288.0,66585.0,6.21526312828064
454.0,120208.0,66597.0,6.231011629104614
453.0,120214.0,66586.0,6.246601581573486
454.0,120224.0,66594.0,6.262034893035889
454.0,120248.0,66574.0,6.277313470840454
455.0,120273.0,66557.0,6.29334831237793
454.0,120306.0,66594.0,6.309223890304565
455.0,120274.0,66561.0,6.324941873550415
454.0,120265.0,66581.0,6.340503931045532
455.0,120258.0,66574.0,6.355911731719971
454.0,120235.0,66550.0,6.371167182922363
453.0,120198.0,66566.0,6.38714861869812
454.0,120162.0,66585.0,6.402973651885986
453.0,120190.0,66580.0,6.418643474578857
455.0,120248.0,66558.0,6.434160232543945
454.0,120277.0,66574.0,6.449525356292725
453.0,120243.0,66574.0,6.464740514755249
454.0,120256.0,66580.0,6.480691432952881
454.0,120183.0,66543.0,6.496487855911255
453.0,120253.0,66554.0,6.512132167816162
453.0,120223.0,66555.0,6.527625322341919
454.0,120187.0,66579.0,6.542969226837158
454.0,120233.0,66560.0,6.558165550231934
454.0,120271.0,66560.0,6.574212074279785
454.0,120252.0,66571.0,6.590105772018433
453.0,120297.0,66567.0,6.605848073959351
455.0,120293.0,66555.0,6.621440887451172
454.0,120278.0,66600.0,6.63688588142395
454.0,120320.0,66560.0,6.652184247970581
454.0,120323.0,66592.0,6.668197154998779
455.0,120288.0,66585.0,6.6840598583221436
454.0,120350.0,66590.0,6.699773550033569
454.0,120319.0,66590.0,6.71533989906311
453.0,120333.0,66608.0,6.73076057434082
456.0,120323.0,66578.0,6.746037006378174
454.0,120328.0,66592.0,6.762027740478516
454.0,120397.0,66585.0,6.777870416641235
453.0,120347.0,66593.0,6.7935662269592285
454.0,120360.0,66601.0,6.809116840362549
452.0,120364.0,66626.0,6.82452392578125
453.0,120360.0,66626.0,6.839788913726807
455.0,120388.0,66601.0,6.855712652206421
453.0,120319.0,66615.0,6.871490716934204
453.0,120416.0,66588.0,6.887124538421631
455.0,120397.0,66615.0,6.902615547180176
454.0,120395.0,66610.0,6.917965412139893
454.0,120375.0,66605.0,6.933175563812256
455.0,120428.0,66609.0,6.9492175579071045
454.0,120352.0,66596.0,6.965115070343018
454.0,120360.0,66627.0,6.980869293212891
454.0,120366.0,66599.0,6.996481657028198
455.0,120387.0,66635.0,7.011953592300415
455.0,120235.0,66625.0,7.027286767959595
454.0,120278.0,66615.0,7.043269872665405
453.0,120297.0,66638.0,7.059110403060913
456.0,120315.0,66576.0,7.074810266494751
453.0,120248.0,66607.0,7.0903706550598145
455.0,120280.0,66630.0,7.105792760848999
455.0,120289.0,66598.0,7.121078014373779
454.0,120328.0,66626.0,7.137023210525513
454.0,120273.0,66630.0,7.152827978134155
453.0,120302.0,66606.0,7.168493986129761
454.0,120318.0,66601.0,7.184022426605225
454.0,120324.0,66607.0,7.199414968490601
454.0,120287.0,66605.0,7.214672565460205
455.0,120257.0,66620.0,7.230581521987915
454.0,120250.0,66600.0,7.246352434158325
454.0,120294.0,66611.0,7.261986494064331
454.0,120275.0,66592.0,7.277485132217407
453.0,120296.0,66603.0,7.292849540710449
453.0,120271.0,66613.0,7.308081150054932
455.0,120284.0,66611.0,7.32409405708313
456.0,120254.0,66594.0,7.339969873428345
455.0,120301.0,66584.0,7.355709791183472
454.0,120279.0,66612.0,7.371315002441406
454.0,120311.0,66633.0,7.386786937713623
456.0,120314.0,66610.0,7.402126789093018
455.0,120341.0,66598.0,7.418092966079712
454.0,120392.0,66622.0,7.433923959732056
455.0,120307.0,66622.0,7.449620962142944
455.0,120307.0,66618.0,7.4651854038238525
454.0,120306.0,66609.0,7.480618476867676
454.0,120325.0,66621.0,7.49592137336731
454.0,120367.0,66621.0,7.51185154914856
453.0,120352.0,66598.0,7.527648448944092
454.0,120367.0,66623.0,7.543313264846802
453.0,120386.0,66630.0,7.558847427368164
453.0,120322.0,66622.0,7.574252128601074
455.0,120388.0,66599.0,7.589528322219849
453.0,120411.0,66614.0,7.60553240776062
454.0,120430.0,66653.0,7.62140417098999
454.0,120384.0,66649.0,7.637145042419434
455.0,120371.0,66616.0,7.652756214141846
454.0,120447.0,66631.0,7.668238878250122
454.0,120389.0,66648.0,7.683594226837158
455.0,120459.0,66639.0,7.699577569961548
455.0,120469.0,66676.0,7.715430736541748
454.0,120460.0,66651.0,7.731154441833496
453.0,120420.0,66654.0,7.746750116348267
454.0,120448.0,66638.0,7.762218952178955
454.0,120440.0,66659.0,7.777562141418457
454.0,120416.0,66643.0,7.7935097217559814
454.0,120348.0,66636.0,7.80932879447937
455.0,120373.0,66629.0,7.8250203132629395
455.0,120359.0,66628.0,7.840585708618164
454.0,120334.0,66636.0,7.856025695800781
454.0,120330.0,66640.0,7.8713414669036865
455.0,120259.0,66655.0,7.8873114585876465
453.0,120300.0,66641.0,7.903153896331787
455.0,120355.0,66642.0,7.918870210647583
453.0,120361.0,66638.0,7.93446159362793
452.0,120366.0,66600.0,7.9499287605285645
455.0,120320.0,66641.0,7.965273380279541
454.0,120338.0,66637.0,7.9811530113220215
454.0,120311.0,66629.0,7.996907711029053
454.0,120354.0,66643.0,8.012537956237793
452.0,120322.0,66632.0,8.028045415878296
454.0,120327.0,66617.0,8.043430805206299
455.0,120305.0,66624.0,8.058695316314697
454.0,120348.0,66604.0,8.074795007705688
454.0,120347.0,66623.0,8.090769529342651
453.0,120350.0,66645.0,8.106619834899902
454.0,120303.0,66625.0,8.122346878051758
453.0,120298.0,66630.0,8.137951850891113
453.0,120335.0,66622.0,8.153435945510864
453.0,120274.0,66625.0,8.169364929199219
454.0,120378.0,66578.0,8.185170888900757
452.0,120351.0,66615.0,8.200855255126953
454.0,120369.0,66604.0,8.216418981552124
453.0,120388.0,66630.0,8.231863260269165
454.0,120342.0,66637.0,8.247188806533813
455.0,120287.0,66624.0,8.263100862503052
454.0,120429.0,66630.0,8.278891563415527
454.0,120333.0,66637.0,8.294562101364136
455.0,120433.0,66626.0,8.310113430023193
454.0,120377.0,66640.0,8.325546503067017
456.0,120347.0,66649.0,8.340862274169922
454.0,120377.0,66619.0,8.356727838516235
455.0,120369.0,66633.0,8.372473955154419
453.0,120355.0,66654.0,8.38810133934021
454.0,120401.0,66658.0,8.403610944747925
455.0,120400.0,66656.0,8.419004201889038
455.0,120433.0,66613.0,8.434281587600708
455.0,120415.0,66639.0,8.450230360031128
454.0,120365.0,66646.0,8.466060400009155
455.0,120400.0,66669.0,8.481772422790527
455.0,120427.0,66660.0,8.49736762046814
455.0,120440.0,66670.0,8.512846946716309
454.0,120476.0,66656.0,8.528211116790771
456.0,120432.0,66669.0,8.544231653213501
454.0,120369.0,66670.0,8.560133934020996
454.0,120524.0,66665.0,8.575919389724731
454.0,120499.0,66663.0,8.591588497161865
453.0,120439.0,66673.0,8.607142686843872
454.0,120462.0,66657.0,8.62258243560791
454.0,120522.0,66670.0,8.638465642929077
454.0,120420.0,66630.0,8.654232740402222
455.0,120508.0,66676.0,8.669885158538818
454.0,120465.0,66656.0,8.685423374176025
454.0,120412.0,66653.0,8.700848579406738
454.0,120406.0,66658.0,8.716161489486694
455.0,120367.0,66662.0,8.732022762298584
454.0,120383.0,66657.0,8.747769355773926
455.0,120267.0,66646.0,8.763402462005615
454.0,120344.0,66658.0,8.77892279624939
455.0,120351.0,66653.0,8.794331312179565
455.0,120401.0,66649.0,8.80962872505188
455.0,120332.0,66640.0,8.825583934783936
454.0,120325.0,66641.0,8.84142518043518
454.0,120336.0,66607.0,8.857153415679932
453.0,120298.0,66636.0,8.872769355773926
454.0,120377.0,66627.0,8.888274192810059
454.0,120358.0,66622.0,8.903668642044067
454.0,120326.0,66606.0,8.919571161270142
454.0,120274.0,66611.0,8.93536114692688
454.0,120232.0,66623.0,8.951039552688599
455.0,120355.0,66624.0,8.966607332229614
454.0,120373.0,66634.0,8.982065200805664
454.0,120378.0,66625.0,8.997414112091064
455.0,120330.0,66609.0,9.013287544250488
453.0,120300.0,66623.0,9.029049634933472
454.0,120242.0,66605.0,9.04470157623291
454.0,120316.0,66605.0,9.060244083404541
455.0,120359.0,66585.0,9.075677871704102
454.0,120342.0,66618.0,9.091004133224487
452.0,120288.0,66622.0,9.10689115524292
454.0,120344.0,66580.0,9.122668266296387
453.0,120295.0,66614.0,9.138335943222046
454.0,120354.0,66637.0,9.153895378112793
454.0,120292.0,66623.0,9.169347047805786
453.0,120306.0,66615.0,9.184692144393921
455.0,120339.0,66616.0,9.200613021850586
454.0,120356.0,66626.0,9.216424703598022
454.0,120333.0,66592.0,9.232128143310547
453.0,120329.0,66626.0,9.247724056243896
455.0,120357.0,66599.0,9.263213157653809
454.0,120381.0,66623.0,9.27859616279602
454.0,120206.0,66641.0,9.294494867324829
455.0,120357.0,66602.0,9.310285329818726
454.0,120339.0,66610.0,9.325968742370605
455.0,120377.0,66638.0,9.341545820236206
454.0,120363.0,66623.0,9.357017278671265
454.0,120375.0,66618.0,9.372383832931519
454.0,120415.0,66622.0,9.388348817825317
454.0,120419.0,66610.0,9.40420651435852
455.0,120382.0,66618.0,9.419957637786865
454.0,120421.0,66632.0,9.435602903366089
454.0,120369.0,66625.0,9.451143503189087
455.0,120392.0,66612.0,9.466579675674438
455.0,120440.0,66638.0,9.482473850250244
455.0,120356.0,66592.0,9.498262166976929
453.0,120450.0,66633.0,9.51394534111023
453.0,120395.0,66631.0,9.529524326324463
453.0,120420.0,66634.0,9.544999599456787
454.0,120386.0,66620.0,9.560372114181519
454.0,120455.0,66643.0,9.57627820968628
455.0,120424.0,66635.0,9.592079639434814
453.0,120422.0,66634.0,9.607776880264282
453.0,120410.0,66608.0,9.62337064743042
454.0,120388.0,66615.0,9.638861656188965
455.0,120318.0,66614.0,9.654250860214233
454.0,120300.0,66602.0,9.670129299163818
455.0,120322.0,66590.0,9.685904026031494
455.0,120346.0,66615.0,9.701575756072998
454.0,120349.0,66620.0,9.717144966125488
453.0,120403.0,66584.0,9.73261284828186
454.0,120339.0,66567.0,9.747979640960693
455.0,120323.0,66600.0,9.76385760307312
455.0,120332.0,66620.0,9.779632329940796
455.0,120305.0,66593.0,9.795305252075195
454.0,120278.0,66611.0,9.810876846313477
454.0,120255.0,66611.0,9.826347589492798
454.0,120317.0,66602.0,9.841718673706055
454.0,120332.0,66599.0,9.857550621032715
453.0,120335.0,66596.0,9.873281002044678
453.0,120327.0,66586.0,9.888910293579102
453.0,120272.0,66612.0,9.904439687728882
454.0,120224.0,66605.0,9.919869422912598
454.0,120340.0,66597.0,9.935200691223145
452.0,120212.0,66605.0,9.951097011566162
454.0,120230.0,66610.0,9.96689248085022
453.0,120270.0,66612.0,9.982587814331055
453.0,120285.0,66577.0,9.998183250427246
453.0,120305.0,66591.0,10.01367998123169
453.0,120288.0,66596.0,10.029078483581543
454.0,120321.0,66567.0,10.045068502426147
454.0,120323.0,66565.0,10.060957670211792
454.0,120304.0,66559.0,10.076747179031372
453.0,120282.0,66575.0,10.092437505722046
453.0,120256.0,66578.0,10.108029127120972
452.0,120250.0,66563.0,10.123522996902466
452.0,120355.0,66574.0,10.139364242553711
453.0,120269.0,66576.0,10.155106544494629
454.0,120270.0,66582.0,10.170750856399536
453.0,120313.0,66592.0,10.186297416687012
453.0,120382.0,66573.0,10.201747179031372
454.0,120317.0,66568.0,10.217100858688354
453.0,120357.0,66573.0,10.233010530471802
453.0,120361.0,66592.0,10.24882197380066
452.0,120353.0,66558.0,10.264535903930664
453.0,120356.0,66571.0,10.280152559280396
454.0,120323.0,66549.0,10.29567289352417
453.0,120309.0,66579.0,10.311097621917725
452.0,120352.0,66585.0,10.327011585235596
453.0,120353.0,66594.0,10.342828273773193
452.0,120337.0,66600.0,10.358547925949097
453.0,120379.0,66584.0,10.374171257019043
452.0,120352.0,66590.0,10.389699220657349
452.0,120380.0,66580.0,10.405132055282593
453.0,120316.0,66588.0,10.421013593673706
453.0,120343.0,66598.0,10.436798334121704
453.0,120376.0,66562.0,10.452487468719482
453.0,120362.0,66552.0,10.46808123588562
453.0,120462.0,66581.0,10.483580589294434
453.0,120375.0,66561.0,10.498985767364502
452.0,120305.0,66545.0,10.51482367515564
453.0,120293.0,66564.0,10.530566215515137
454.0,120279.0,66568.0,10.546213865280151
453.0,120339.0,66572.0,10.561767339706421
453.0,120282.0,66569.0,10.577227354049683
454.0,120240.0,66556.0,10.592594385147095
454.0,120222.0,66556.0,10.608402252197266
453.0,120346.0,66543.0,10.624115943908691
454.0,120190.0,66557.0,10.639735698699951
453.0,120297.0,66573.0,10.655262231826782
454.0,120290.0,66559.0,10.670696258544922
453.0,120272.0,66541.0,10.686038255691528
454.0,120294.0,66547.0,10.701984167098999
454.0,120289.0,66532.0,10.717835664749146
454.0,120252.0,66557.0,10.733593463897705
454.0,120260.0,66552.0,10.749258041381836
454.0,120248.0,66515.0,10.764830112457275
454.0,120227.0,66532.0,10.78031039237976
455.0,120239.0,66520.0,10.7961585521698
455.0,120215.0,66544.0,10.811913967132568
453.0,120180.0,66546.0,10.827576637268066
454.0,120164.0,66529.0,10.84314751625061
454.0,120264.0,66538.0,10.858627319335938
454.0,120176.0,66553.0,10.874016284942627
454.0,120197.0,66506.0,10.889846801757812
453.0,120229.0,66513.0,10.905585050582886
454.0,120145.0,66498.0,10.921231746673584
453.0,120181.0,66539.0,10.936787366867065
453.0,120177.0,66488.0,10.952252864837646
454.0,120170.0,66517.0,10.967628240585327
454.0,120213.0,66507.0,10.983441591262817
453.0,120207.0,66501.0,10.999163389205933
451.0,120178.0,66514.0,11.01479458808899
452.0,120260.0,66495.0,11.030335664749146
454.0,120216.0,66534.0,11.04578709602356
453.0,120223.0,66521.0,11.061149597167969
454.0,120225.0,66525.0,11.077015399932861
454.0,120147.0,66491.0,11.092790603637695
454.0,120255.0,66512.0,11.10847544670105
454.0,120223.0,66505.0,11.124070405960083
453.0,120283.0,66504.0,11.139576435089111
453.0,120246.0,66487.0,11.154993772506714
455.0,120251.0,66519.0,11.170835971832275
455.0,120182.0,66515.0,11.186588287353516
454.0,120191.0,66491.0,11.202250957489014
454.0,120205.0,66513.0,11.217824935913086
453.0,120168.0,66483.0,11.233310461044312
454.0,120182.0,66492.0,11.248708486557007
454.0,120241.0,66459.0,11.264527797698975
454.0,120179.0,66500.0,11.280257940292358
454.0,120236.0,66481.0,11.295899391174316
454.0,120125.0,66468.0,11.311453104019165
456.0,120195.0,66495.0,11.326919078826904
455.0,120152.0,66493.0,11.34229826927185
454.0,120137.0,66508.0,11.358123540878296
453.0,120131.0,66488.0,11.373860359191895
454.0,120126.0,66462.0,11.389509201049805
454.0,120057.0,66451.0,11.405070781707764
454.0,120039.0,66457.0,11.42054557800293
454.0,120061.0,66453.0,11.435934066772461
454.0,120084.0,66442.0,11.451798439025879
453.0,119990.0,66416.0,11.467575073242188
455.0,120079.0,66422.0,11.483264207839966
454.0,120041.0,66448.0,11.498866319656372
454.0,120066.0,66440.0,11.514382362365723
454.0,120022.0,66443.0,11.529812335968018
452.0,119980.0,66419.0,11.545648097991943
453.0,120076.0,66409.0,11.561396837234497
453.0,119989.0,66416.0,11.577059030532837
454.0,120057.0,66413.0,11.592635154724121
454.0,120035.0,66394.0,11.608125686645508
454.0,120008.0,66385.0,11.623531341552734
453.0,119982.0,66384.0,11.639350652694702
454.0,119925.0,66395.0,11.655083417892456
454.0,120004.0,66365.0,11.670730352401733
453.0,119972.0,66387.0,11.686292171478271
454.0,119967.0,66354.0,11.70176911354065
453.0,119964.0,66387.0,11.717161893844604
455.0,120008.0,66401.0,11.732954025268555
455.0,119931.0,66382.0,11.748660802841187
453.0,119977.0,66375.0,11.764282464981079
452.0,120048.0,66405.0,11.77981948852539
454.0,119993.0,66348.0,11.795272827148438
453.0,119958.0,66361.0,11.81064248085022
453.0,119937.0,66379.0,11.826494932174683
454.0,119982.0,66376.0,11.842262268066406
452.0,119954.0,66363.0,11.857944965362549
453.0,119940.0,66333.0,11.873543500900269
452.0,120010.0,66376.0,11.889058589935303
452.0,119880.0,66341.0,11.904490232467651
453.0,119956.0,66350.0,11.920320510864258
453.0,119947.0,66337.0,11.936066627502441
454.0,119952.0,66355.0,11.951728582382202
453.0,119975.0,66344.0,11.967307329177856
454.0,120001.0,66352.0,11.982802867889404
453.0,119952.0,66357.0,11.998216152191162
453.0,119995.0,66328.0,12.014025211334229
453.0,119930.0,66328.0,12.029750347137451
454.0,119968.0,66341.0,12.045392513275146
453.0,119935.0,66342.0,12.060951948165894
453.0,119950.0,66346.0,12.07642912864685
453.0,119957.0,66341.0,12.091824769973755
454.0,120069.0,66339.0,12.10761284828186
453.0,120002.0,66339.0,12.123318195343018
453.0,120028.0,66356.0,12.138941049575806
454.0,120025.0,66326.0,12.154481887817383
454.0,119942.0,66361.0,12.169941186904907
454.0,120026.0,66345.0,12.185319662094116
454.0,119989.0,66355.0,12.20116639137268
454.0,119857.0,66331.0,12.216930389404297
452.0,119934.0,66295.0,12.232612371444702
453.0,119858.0,66308.0,12.248212814331055
454.0,119830.0,66305.0,12.263731956481934
452.0,119872.0,66322.0,12.279170513153076
454.0,119835.0,66290.0,12.294995784759521
453.0,119784.0,66267.0,12.310739040374756
454.0,119827.0,66280.0,12.326400995254517
452.0,119791.0,66271.0,12.341982126235962
454.0,119667.0,66301.0,12.357482671737671
452.0,119752.0,66287.0,12.372903108596802
452.0,119771.0,66279.0,12.388707637786865
452.0,119787.0,66259.0,12.404430866241455
453.0,119791.0,66277.0,12.420073509216309
452.0,119778.0,66253.0,12.435635805130005
454.0,119802.0,66281.0,12.451118469238281
453.0,119802.0,66253.0,12.466521501541138
453.0,119807.0,66260.0,12.482336521148682
453.0,119722.0,66258.0,12.49807095527649
453.0,119752.0,66238.0,12.513725280761719
453.0,119714.0,66237.0,12.529299974441528
452.0,119726.0,66251.0,12.544795036315918
454.0,119741.0,66223.0,12.560211658477783
454.0,119730.0,66226.0,12.576057195663452
452.0,119731.0,66235.0,12.591822624206543
452.0,119727.0,66209.0,12.607508420944214
452.0,119719.0,66222.0,12.623114824295044
453.0,119664.0,66257.0,12.638642311096191
452.0,119667.0,66209.0,12.654091596603394
454.0,119747.0,66191.0,12.669926404953003
453.0,119701.0,66199.0,12.685681581497192
452.0,119725.0,66210.0,12.70135760307312
452.0,119727.0,66193.0,12.716955184936523
454.0,119727.0,66203.0,12.732474327087402
451.0,119743.0,66234.0,12.747915744781494
453.0,119730.0,66220.0,12.763720035552979
452.0,119747.0,66199.0,12.77944540977478
452.0,119664.0,66195.0,12.795092344284058
453.0,119733.0,66212.0,12.810661315917969
453.0,119724.0,66200.0,12.826152801513672
453.0,119708.0,66217.0,12.841567039489746
452.0,119785.0,66238.0,12.857346773147583
453.0,119787.0,66225.0,12.873048305511475
455.0,119720.0,66210.0,12.888671875
453.0,119754.0,66217.0,12.904218196868896
452.0,119723.0,66207.0,12.919687747955322
454.0,119759.0,66203.0,12.935080766677856
454.0,119763.0,66207.0,12.950915575027466
454.0,119777.0,66231.0,12.966672420501709
453.0,119800.0,66235.0,12.982352018356323
453.0,119793.0,66246.0,12.997954368591309
453.0,119787.0,66211.0,13.013480186462402
453.0,119757.0,66231.0,13.028929948806763
454.0,119824.0,66223.0,13.044744491577148
453.0,119753.0,66212.0,13.060482025146484
452.0,119846.0,66219.0,13.07614254951477
454.0,119814.0,66204.0,13.091726779937744
454.0,119850.0,66203.0,13.107234954833984
453.0,119803.0,66261.0,13.12266755104065
453.0,119833.0,66243.0,13.138462543487549
454.0,119908.0,66229.0,13.154181003570557
454.0,119724.0,66198.0,13.169823408126831
453.0,119800.0,66224.0,13.185389757156372
453.0,119759.0,66193.0,13.200881004333496
454.0,119723.0,66210.0,13.216296911239624
452.0,119698.0,66194.0,13.232073068618774
454.0,119700.0,66228.0,13.247773170471191
454.0,119689.0,66209.0,13.263397693634033
453.0,119683.0,66208.0,13.278947114944458
453.0,119619.0,66174.0,13.294421672821045
452.0,119658.0,66198.0,13.309821844100952
452.0,119683.0,66230.0,13.325742721557617
453.0,119635.0,66195.0,13.341587781906128
453.0,119629.0,66197.0,13.357357025146484
453.0,119669.0,66172.0,13.373050928115845
454.0,119629.0,66187.0,13.388669967651367
452.0,119655.0,66207.0,13.40421462059021
453.0,119623.0,66187.0,13.420023202896118
453.0,119659.0,66179.0,13.43575668334961
452.0,119647.0,66180.0,13.451415300369263
453.0,119568.0,66160.0,13.466999769210815
453.0,119570.0,66167.0,13.482510328292847
454.0,119560.0,66183.0,13.497947216033936
453.0,119595.0,66167.0,13.513741731643677
453.0,119682.0,66180.0,13.52946162223816
454.0,119580.0,66179.0,13.545107126235962
453.0,119610.0,66182.0,13.560679197311401
454.0,119568.0,66171.0,13.576177597045898
455.0,119619.0,66168.0,13.59160304069519
454.0,119673.0,66178.0,13.607374429702759
453.0,119617.0,66146.0,13.623071670532227
452.0,119541.0,66189.0,13.638695240020752
452.0,119604.0,66208.0,13.654245615005493
453.0,119627.0,66159.0,13.669723272323608
453.0,119605.0,66169.0,13.685128450393677
453.0,119649.0,66164.0,13.700952053070068
454.0,119652.0,66162.0,13.716701745986938
453.0,119580.0,66179.0,13.732378244400024
452.0,119686.0,66199.0,13.747981786727905
453.0,119681.0,66190.0,13.76351261138916
453.0,119705.0,66199.0,13.778971433639526
452.0,119678.0,66181.0,13.794817686080933
452.0,119709.0,66207.0,13.810590744018555
453.0,119675.0,66193.0,13.826290845870972
453.0,119704.0,66232.0,13.841918230056763
454.0,119654.0,66188.0,13.857473611831665
454.0,119664.0,66215.0,13.872956991195679
454.0,119721.0,66213.0,13.888742446899414
454.0,119758.0,66219.0,13.904455184936523
455.0,119716.0,66224.0,13.920095682144165
454.0,119738.0,66201.0,13.935664176940918
453.0,119740.0,66215.0,13.951161623001099
453.0,119714.0,66224.0,13.966587543487549
453.0,119743.0,66214.0,13.982355117797852
453.0,119736.0,66217.0,13.998050451278687
453.0,119706.0,66221.0,14.013674020767212
453.0,119694.0,66231.0,14.029226541519165
455.0,119693.0,66215.0,14.044708013534546
452.0,119796.0,66245.0,14.060118913650513
452.0,119805.0,66197.0,14.075873374938965
452.0,119792.0,66237.0,14.091556549072266
453.0,119811.0,66205.0,14.107168436050415
452.0,119810.0,66214.0,14.122709512710571
453.0,119781.0,66234.0,14.138180255889893
452.0,119790.0,66240.0,14.153580904006958
453.0,119786.0,66241.0,14.169381856918335
455.0,119719.0,66232.0,14.18511152267456
453.0,119730.0,66222.0,14.200770139694214
453.0,119714.0,66215.0,14.216358661651611
453.0,119635.0,66210.0,14.231876611709595
454.0,119694.0,66238.0,14.24732494354248
453.0,119658.0,66230.0,14.263108015060425
453.0,119629.0,66216.0,14.278820276260376
452.0,119698.0,66249.0,14.294461965560913
453.0,119631.0,66186.0,14.310034036636353
454.0,119624.0,66231.0,14.325536251068115
453.0,119659.0,66212.0,14.34096908569336
452.0,119645.0,66235.0,14.35673451423645
452.0,119701.0,66251.0,14.372429847717285
454.0,119697.0,66252.0,14.388055324554443
453.0,119621.0,66229.0,14.403611183166504
452.0,119567.0,66230.0,14.419098138809204
452.0,119644.0,66212.0,14.434516191482544
453.0,119693.0,66193.0,14.450331211090088
452.0,119645.0,66225.0,14.466076374053955
453.0,119627.0,66236.0,14.481751918792725
454.0,119626.0,66239.0,14.497358083724976
453.0,119740.0,66253.0,14.512895584106445
454.0,119667.0,66253.0,14.528364419937134
454.0,119592.0,66223.0,14.544209957122803
453.0,119578.0,66216.0,14.559985876083374
453.0,119620.0,66225.0,14.575692653656006
453.0,119643.0,66237.0,14.591330528259277
453.0,119582.0,66259.0,14.606899499893188
455.0,119645.0,66233.0,14.622400522232056
453.0,119599.0,66251.0,14.638179302215576
453.0,119633.0,66200.0,14.653889179229736
453.0,119672.0,66247.0,14.669530391693115
454.0,119665.0,66256.0,14.685103416442871
453.0,119667.0,66207.0,14.700608491897583
453.0,119601.0,66267.0,14.71604585647583
453.0,119696.0,66230.0,14.731807708740234
453.0,119633.0,66242.0,14.747500896453857
452.0,119694.0,66224.0,14.763126134872437
454.0,119637.0,66262.0,14.77868366241455
454.0,119727.0,66237.0,14.79417371749878
453.0,119760.0,66255.0,14.809596538543701
452.0,119694.0,66232.0,14.825406551361084
453.0,119730.0,66251.0,14.841148614883423
453.0,119733.0,66269.0,14.856822729110718
453.0,119733.0,66269.0,14.872429370880127
453.0,119739.0,66235.0,14.88796854019165
453.0,119771.0,66267.0,14.903440952301025
453.0,119661.0,66266.0,14.91924238204956
452.0,119835.0,66302.0,14.934975862503052
454.0,119750.0,66279.0,14.950641870498657
453.0,119750.0,66269.0,14.966240882873535
453.0,119713.0,66295.0,14.981772899627686
453.0,119762.0,66263.0,14.997238636016846
452.0,119771.0,66294.0,15.013014078140259
454.0,119765.0,66269.0,15.028722286224365
453.0,119805.0,66276.0,15.044363737106323
453.0,119816.0,66274.0,15.059938430786133
453.0,119761.0,66292.0,15.075446605682373
454.0,119764.0,66306.0,15.090888977050781
453.0,119806.0,66274.0,15.106664896011353
453.0,119729.0,66263.0,15.122374057769775
453.0,119766.0,66281.0,15.13801646232605
453.0,119716.0,66294.0,15.153592824935913
453.0,119665.0,66274.0,15.169103145599365
454.0,119662.0,66260.0,15.184547901153564
453.0,119648.0,66286.0,15.200294733047485
454.0,119680.0,66272.0,15.215975046157837
452.0,119618.0,66277.0,15.231589317321777
452.0,119671.0,66302.0,15.247138023376465
453.0,119681.0,66275.0,15.2626211643219
453.0,119654.0,66242.0,15.27803921699524
453.0,119663.0,66260.0,15.293828964233398
452.0,119662.0,66281.0,15.309552669525146
454.0,119610.0,66266.0,15.325210332870483
453.0,119661.0,66291.0,15.340802669525146
453.0,119657.0,66263.0,15.356329917907715
452.0,119631.0,66254.0,15.371792078018188
453.0,119662.0,66280.0,15.38756513595581
453.0,119608.0,66257.0,15.40327262878418
452.0,119648.0,66284.0,15.418914794921875
453.0,119579.0,66267.0,15.434491634368896
452.0,119610.0,66277.0,15.45000410079956
453.0,119584.0,66261.0,15.465451955795288
453.0,119575.0,66254.0,15.481221199035645
453.0,119619.0,66271.0,15.496925354003906
454.0,119587.0,66267.0,15.512564420700073
454.0,119582.0,66296.0,15.528138875961304
453.0,119628.0,66271.0,15.543648958206177
454.0,119603.0,66257.0,15.559094905853271
454.0,119602.0,66265.0,15.574897766113281
455.0,119638.0,66278.0,15.590635538101196
453.0,119656.0,66261.0,15.606308698654175
454.0,119624.0,66272.0,15.621917486190796
455.0,119633.0,66236.0,15.637462139129639
453.0,119623.0,66271.0,15.652942895889282
455.0,119681.0,66260.0,15.668737173080444
454.0,119687.0,66267.0,15.68446683883667
453.0,119660.0,66261.0,15.700132369995117
453.0,119683.0,66275.0,15.715733766555786
452.0,119703.0,66305.0,15.731271505355835
453.0,119645.0,66284.0,15.746745824813843
454.0,119675.0,66271.0,15.762515783309937
453.0,119624.0,66302.0,15.778221368789673
454.0,119655.0,66276.0,15.79386305809021
452.0,119620.0,66286.0,15.809441328048706
453.0,119735.0,66301.0,15.82495641708374
453.0,119699.0,66273.0,15.840408325195312
453.0,119684.0,66267.0,15.856166362762451
453.0,119712.0,66279.0,15.87186050415039
454.0,119647.0,66299.0,15.887491464614868
454.0,119738.0,66317.0,15.903059005737305
454.0,119724.0,66295.0,15.918563842773438
454.0,119724.0,66293.0,15.934005975723267
453.0,119685.0,66291.0,15.94980502128601
455.0,119672.0,66293.0,15.965540409088135
454.0,119720.0,66285.0,15.981212615966797
455.0,119678.0,66300.0,15.996821880340576
454.0,119695.0,66296.0,16.01236844062805
454.0,119707.0,66296.0,16.027852773666382
